time_stamp,radius,colat,lon,X,Y,Z,flags_b,flags_q,Kp10,dDst,Br,Btheta,Bphi
6831.266666666666,6869.86541,8.592939600000008,38.0941992,3854.3627,1469.4564,45326.7062,0,0,29.233333333366318,0.7001920306851313,-45326.7062,-3854.3627,1469.4564
6831.267361111111,6869.71645,5.016397600000005,49.375280499999995,2331.2434000000003,1274.2003,45795.2972,0,0,29.138888888861402,0.7502000319964255,-45795.2972,-2331.2434000000003,1274.2003
6831.268055555555,6869.63966,2.3502459999999985,95.87723609999999,504.9125,1075.8616,46133.086,0,0,29.044444444480177,0.8002080332422254,-46133.086,-504.9125,1075.8616
6831.26875,6869.6357,3.862414700000002,166.6316276,620.4639000000001,212.3702,46337.9081,0,0,28.94999999997526,0.8502160345535197,-46337.9081,-620.4639000000001,212.3702
6831.269444444444,6869.70449,7.303993800000001,-175.8614246,2193.7555,228.8128,46378.569500000005,0,0,28.855555555594037,0.9002240357993196,-46378.569500000005,-2193.7555,228.8128
6831.270138888889,6869.845310000001,10.991501600000007,-169.9265276,3896.6243000000004,529.363,46212.549900000005,0,0,28.76111111108912,0.9502320371106139,-46212.549900000005,-3896.6243000000004,529.363
6831.270833333333,6870.05672,14.741462600000006,-167.0914034,5691.602,908.5145,45806.3053,0,0,28.666666666707897,0.9997600192481766,-45806.3053,-5691.602,908.5145
6831.271527777778,6870.3366000000005,18.51589,-165.4901174,7386.6810000000005,1465.4550000000002,45154.6135,0,0,28.57222222220298,0.9497640188957257,-45154.6135,-7386.6810000000005,1465.4550000000002
6831.272222222222,6870.68219,22.3022737,-164.4992508,9338.6268,1715.6302,44155.4077,0,0,28.477777777821757,0.8997680186087533,-44155.4077,-9338.6268,1715.6302
6831.272916666667,6871.09009,26.095309500000006,-163.85371089999998,11171.8667,2039.7914,42807.4239,0,0,28.38333333331684,0.8497720182563024,-42807.4239,-11171.8667,2039.7914
6831.273611111111,6871.556280000001,29.892358200000004,-163.4220499,12893.212300000001,2344.5548,41122.0601,0,0,28.288888888935617,0.7997760179693301,-41122.0601,-12893.212300000001,2344.5548
6831.274305555556,6872.07629,33.6919503,-163.1317573,14460.024500000001,2613.2512,39139.8381,0,0,28.1944444444307,0.7497800176168792,-39139.8381,-14460.024500000001,2613.2512
6831.275,6872.64524,37.493194700000004,-162.93956609999998,15827.5393,2836.9093000000003,36919.586,0,0,28.100000000049477,0.6997840173299068,-36919.586,-15827.5393,2836.9093000000003
6831.2756944444445,6873.25802,41.2955136,-162.8180483,16979.811700000002,3017.7441000000003,34543.2664,0,0,28.00555555554456,0.6497880169774559,-34543.2664,-16979.811700000002,3017.7441000000003
6831.2763888888885,6873.90925,45.098510600000004,-162.7489561,17940.0639,3159.6164000000003,32089.3214,0,0,27.911111111163336,0.5997920166904835,-32089.3214,-17940.0639,3159.6164000000003
6831.277083333333,6874.59338,48.9019003,-162.719656,18744.855900000002,3266.5855,29606.254800000002,0,0,27.81666666665842,0.5497960163380327,-29606.254800000002,-18744.855900000002,3266.5855
6831.277777777777,6875.30472,52.7054692,-162.7211012,19432.7766,3347.7817,27130.844100000002,0,0,27.722222222277196,0.49980001605106017,-27130.844100000002,-19432.7766,3347.7817
6831.278472222222,6876.037429999999,56.5090512,-162.7466194,20055.1689,3413.3182,24678.2984,0,0,27.62777777777228,0.4498040156986094,-24678.2984,-20055.1689,3413.3182
6831.279166666666,6876.78561,60.3125128,-162.7911579,20659.2972,3468.7901,22235.951,0,0,27.533333333391056,0.3998080154116369,-22235.951,-20659.2972,3468.7901
6831.279861111111,6877.543310000001,64.1157432,-162.8507947,21277.9964,3521.5579000000002,19771.7086,0,0,27.43888888888614,0.34981201505918613,-19771.7086,-21277.9964,3521.5579000000002
6831.280555555555,6878.304730000001,67.9186475,-162.9224119,21928.3148,3579.4272,17243.8001,0,0,27.344444444504916,0.29981601477221365,-17243.8001,-21928.3148,3579.4272
6831.28125,6879.06434,71.7211429,-163.00347109999998,22610.8465,3649.7079000000003,14606.762200000001,0,0,27.25,0.24982001441976287,-14606.762200000001,-22610.8465,3649.7079000000003
6831.281944444445,6879.81702,75.5231566,-163.0918544,23308.8408,3738.3692,11818.308700000001,0,0,27.155555555495084,0.19982401406731198,-11818.308700000001,-23308.8408,3738.3692
6831.282638888889,6880.557940000001,79.3246242,-163.18574809999998,23987.101300000002,3853.5481,8846.869200000001,0,0,27.06111111111386,0.1498280137803395,-8846.869200000001,-23987.101300000002,3853.5481
6831.283333333334,6881.28264,83.1254877,-163.2835542,24603.1467,3995.954,5677.7379,0,0,26.966666666608944,0.09983201342788872,-5677.7379,-24603.1467,3995.954
6831.284027777778,6881.98705,86.9256942,-163.38382149999998,25103.4974,4169.1841,2313.1338,0,0,26.87222222222772,0.049836013140916235,-2313.1338,-25103.4974,4169.1841
6831.284722222223,6882.66762,90.7251952,-163.48518869999998,25439.4159,4372.6254,-1216.1047,0,0,26.777777777722804,0.0001599872115345402,1216.1047,-25439.4159,4372.6254
6831.285416666667,6883.32128,94.5239458,-163.5863344,25575.4314,4605.6038,-4862.1463,0,0,26.68333333334158,0.050155987498506915,4862.1463,-25575.4314,4605.6038
6831.2861111111115,6883.94545,98.3219048,-163.68592999999998,25481.1372,4863.5043000000005,-8569.5355,0,0,26.588888888836664,0.1001519878509578,8569.5355,-25481.1372,4863.5043000000005
6831.2868055555555,6884.53805,102.1190333,-163.782592,25146.9527,5140.2525000000005,-12267.9259,0,0,26.49444444445544,0.15014798813793018,12267.9259,-25146.9527,5140.2525000000005
6831.2875,6885.0975,105.9152942,-163.8748298,24582.8489,5433.097900000001,-15898.279400000001,0,0,26.399999999950523,0.20014398849038106,15898.279400000001,-24582.8489,5433.097900000001
6831.288194444444,6885.6227,109.7106513,-163.96098569999998,23804.097400000002,5728.321,-19403.2892,0,0,26.3055555555693,0.25013998877735366,19403.2892,-23804.097400000002,5728.321
6831.288888888889,6886.11297,113.5050679,-164.0391604,22841.492400000003,6024.2159,-22737.5079,0,0,26.211111111064383,0.3001359891298043,22737.5079,-22841.492400000003,6024.2159
6831.289583333333,6886.56807,117.2985049,-164.10711759999998,21729.838600000003,6315.5058,-25872.5031,0,0,26.11666666668316,0.3501319894167769,25872.5031,-21729.838600000003,6315.5058
6831.290277777778,6886.98817,121.0909185,-164.1621561,20501.2317,6600.3687,-28794.367700000003,0,0,26.022222222178243,0.4001279897692276,28794.367700000003,-20501.2317,6600.3687
6831.290972222222,6887.37377,124.8822571,-164.2009335,19183.2223,6879.2378,-31503.7844,0,0,25.92777777779702,0.4501239900562002,31503.7844,-19183.2223,6879.2378
6831.291666666667,6887.72571,128.6724559,-164.2192144,17793.027700000002,7149.568700000001,-34007.1672,0,0,25.833333333292103,0.5001199904086508,34007.1672,-17793.027700000002,7149.568700000001
6831.292361111111,6888.0451299999995,132.46142989999998,-164.2115029,16333.4847,7415.0005,-36314.5037,0,0,25.73888888891088,0.5501159906956234,36314.5037,-16333.4847,7415.0005
6831.293055555556,6888.33344,136.2490628,-164.1704858,14800.8862,7677.6389,-38430.6825,0,0,25.644444444405963,0.6001119910480741,38430.6825,-14800.8862,7677.6389
6831.29375,6888.5922199999995,140.0351902,-164.0861644,13183.7001,7936.9956,-40348.086800000005,0,0,25.55000000002474,0.6501079913350467,40348.086800000005,-13183.7001,7936.9956
6831.294444444445,6888.82316,143.81957169999998,-163.94444299999998,11467.137,8192.659800000001,-42051.1328,0,0,25.455555555519823,0.7001039916874974,42051.1328,-11467.137,8192.659800000001
6831.295138888889,6889.028,147.6018427,-163.72473829999998,9637.168300000001,8445.1369,-43503.4551,0,0,25.361111111138598,0.75009999197447,43503.4551,-9637.168300000001,8445.1369
6831.295833333334,6889.20845,151.3814305,-163.39570329999998,7698.9944000000005,8688.915500000001,-44657.1854,0,0,25.266666666633682,0.8000959923269209,44657.1854,-7698.9944000000005,8688.915500000001
6831.296527777778,6889.366190000001,155.15739150000002,-162.9070813,5732.151800000001,8882.047400000001,-45459.3441,0,0,25.172222222252458,0.8500919926138932,45459.3441,-5732.151800000001,8882.047400000001
6831.297222222222,6889.50284,158.92807779999998,-162.1728841,3750.0673,9220.399300000001,-45852.898700000005,0,0,25.077777777747542,0.9000879929663441,45852.898700000005,-3750.0673,9220.399300000001
6831.297916666666,6889.619900000001,162.6903689,-161.0328716,1704.8197,9556.856600000001,-45847.3671,0,0,24.983333333366318,0.9500839932533165,45847.3671,-1704.8197,9556.856600000001
6831.298611111111,6889.718620000001,166.43763719999998,-159.1511258,-252.0189,9917.2053,-45364.3718,0,0,24.888888888861402,1.0000799936057674,45364.3718,252.0189,9917.2053
6831.299305555555,6889.79989,170.1531284,-155.6901263,-1652.5385,10219.102700000001,-44443.954900000004,0,0,24.794444444480177,1.0500759938927398,44443.954900000004,1652.5385,10219.102700000001
6831.3,6889.864320000001,173.7801447,-147.8863694,-2119.8356,10907.444300000001,-43068.923200000005,0,0,24.69999999997526,1.1000719942451904,43068.923200000005,2119.8356,10907.444300000001
6831.300694444444,6889.91222,176.9816626,-121.0684096,1742.2856000000002,11836.7759,-41315.1961,0,0,24.605555555594037,1.1500679945321632,41315.1961,-1742.2856000000002,11836.7759
6831.301388888889,6889.94363,177.1312815,-41.2206201,12693.6795,1699.3249,-39244.2152,0,18,24.51111111108912,1.200063994884614,39244.2152,-12693.6795,1699.3249
6831.302083333333,6889.95838,173.99638299999998,-11.7395658,12858.2793,-4036.387,-36948.500400000004,0,18,24.416666666707897,1.2500599951715863,36948.500400000004,-12858.2793,-4036.387
6831.302777777778,6889.95599,170.3795467,-3.4491313,12840.101400000001,-5301.6113000000005,-34524.8525,0,6,24.32222222220298,1.300055995524037,34524.8525,-12840.101400000001,-5301.6113000000005
6831.303472222222,6889.93571,166.6672701,0.1626269,12837.6224,-5813.5247,-32072.9847,0,6,24.227777777821757,1.3500519958110098,32072.9847,-12837.6224,-5813.5247
6831.304166666667,6889.89644,162.9215352,2.1087848,12783.911600000001,-5836.028600000001,-29687.1515,0,6,24.13333333331684,1.4000479961634604,29687.1515,-12783.911600000001,-5836.028600000001
6831.304861111111,6889.8369,159.1602175,3.2819447999999998,12549.5583,-5714.5499,-27439.1353,0,6,24.038888888935617,1.4500439964504328,27439.1353,-12549.5583,-5714.5499
6831.305555555556,6889.755770000001,155.3902929,4.0353658,12159.1985,-5496.9753,-25380.5363,0,6,23.9444444444307,1.5000399968028835,25380.5363,-12159.1985,-5496.9753
6831.30625,6889.65151,151.6150161,4.5360993999999994,11621.1535,-5235.7943000000005,-23565.6016,0,6,23.850000000049477,1.5500359970898563,23565.6016,-11621.1535,-5235.7943000000005
6831.332638888889,6869.77416,7.55342730000001,16.4218753,4051.4770000000003,599.0592,45038.801400000004,0,0,22.516666666662786,0.5501159906956232,-45038.801400000004,-4051.4770000000003,599.0592
6831.333333333333,6869.63979,4.077756300000004,32.3917044,2437.3304000000003,854.6584,45643.6796,0,0,22.500000000007276,0.5001199904086508,-45643.6796,-2437.3304000000003,854.6584
6831.334027777778,6869.57796,2.2884439999999984,99.00824539999999,453.6569,1014.0043000000001,46124.4479,0,0,22.483333333329938,0.45012399005619996,-46124.4479,-453.6569,1014.0043000000001
6831.334722222222,6869.58918,4.783524900000003,150.4017728,1013.9589000000001,168.6996,46438.863000000005,0,0,22.466666666674428,0.4001279897692276,-46438.863000000005,-1013.9589000000001,168.6996
6831.335416666667,6869.67324,8.340481100000005,162.6171325,2704.7684,-80.43560000000001,46537.8173,0,0,22.44999999999709,0.3501319894167767,-46537.8173,-2704.7684,-80.43560000000001
6831.336111111111,6869.82923,12.053238700000009,167.3114743,4561.3892000000005,-134.9182,46373.8206,0,0,22.43333333334158,0.3001359891298043,-46373.8206,-4561.3892000000005,-134.9182
6831.336805555556,6870.055520000001,15.812364299999999,169.690719,6501.6774000000005,-62.4386,45908.2701,0,0,22.41666666666424,0.25013998877735344,-45908.2701,-6501.6774000000005,-62.4386
6831.3375,6870.34983,19.591104200000004,171.0774179,8575.1452,-140.11690000000002,45080.8851,0,0,22.40000000000873,0.20014398849038106,-45080.8851,-8575.1452,-140.11690000000002
6831.3381944444445,6870.70921,23.379857799999996,171.9508866,10609.0725,-104.8935,43875.1394,0,0,22.383333333331393,0.15014798813793018,-43875.1394,-10609.0725,-104.8935
6831.3388888888885,6871.13013,27.174336100000005,172.5254272,12559.6085,-44.7173,42288.2234,0,0,22.366666666675883,0.1001519878509578,-42288.2234,-12559.6085,-44.7173
6831.339583333333,6871.60857,30.9723271,172.9109775,14364.6273,44.9518,40356.211200000005,0,0,22.349999999998545,0.050155987498506915,-40356.211200000005,-14364.6273,44.9518
6831.340277777777,6872.14011,34.7725663,173.1696945,15983.4506,161.4925,38135.8537,0,0,22.333333333343035,0.0001599872115345402,-38135.8537,-15983.4506,161.4925
6831.340972222222,6872.71987,38.574271,173.3393688,17394.9736,313.4465,35700.593,0,0,22.316666666665697,0.049836013140916346,-35700.593,-17394.9736,313.4465
6831.341666666666,6873.34263,42.376924800000005,173.44431319999998,18596.5691,500.63530000000003,33114.1362,0,0,22.300000000010186,0.09983201342788872,-33114.1362,-18596.5691,500.63530000000003
6831.342361111111,6874.00294,46.1801679,173.50089939999998,19606.515600000002,727.3788000000001,30448.7979,0,0,22.28333333333285,0.1498280137803394,-30448.7979,-19606.515600000002,727.3788000000001
6831.343055555555,6874.69517,49.983738100000004,173.52057739999998,20463.927200000002,990.5500000000001,27751.4638,0,0,22.266666666677338,0.1998240140673122,-27751.4638,-20463.927200000002,990.5500000000001
6831.34375,6875.41352,53.787436400000004,173.51161779999998,21210.8704,1288.037,25045.992400000003,0,0,22.25,0.24982001441976287,-25045.992400000003,-21210.8704,1288.037
6831.344444444445,6876.15209,57.5911065,173.4801683,21891.831000000002,1613.4483,22337.6434,0,0,22.233333333322662,0.29981601477221353,-22337.6434,-21891.831000000002,1613.4483
6831.345138888889,6876.90497,61.394620700000004,173.43091769999998,22537.429,1952.5171,19611.4313,0,0,22.21666666666715,0.34981201505918635,-19611.4313,-22537.429,1952.5171
6831.345833333334,6877.66637,65.1978726,173.3675304,23171.8656,2296.0354,16848.7877,0,0,22.199999999989814,0.399808015411637,-16848.7877,-23171.8656,2296.0354
6831.346527777778,6878.43062,69.000771,173.2929389,23809.520800000002,2638.3118,14022.6517,0,0,22.183333333334303,0.4498040156986094,-14022.6517,-23809.520800000002,2638.3118
6831.347222222223,6879.19224,72.8032366,173.20954709999998,24459.8953,2970.2795,11092.390000000001,0,0,22.166666666656965,0.49980001605106006,-11092.390000000001,-24459.8953,2970.2795
6831.347916666667,6879.94607,76.6051987,173.119375,25109.6738,3285.8264000000004,8014.563,0,0,22.150000000001455,0.5497960163380329,-8014.563,-25109.6738,3285.8264000000004
6831.3486111111115,6880.6873,80.406594,173.02416639999998,25723.113,3580.8705,4758.2998,0,0,22.133333333324117,0.5997920166904835,-4758.2998,-25723.113,3580.8705
6831.3493055555555,6881.41154,84.2073652,172.9254703,26256.173600000002,3854.8251,1308.7195000000002,0,0,22.116666666668607,0.6497880169774559,-1308.7195000000002,-26256.173600000002,3854.8251
6831.35,6882.114860000001,88.0074604,172.8247061,26657.6031,4109.6861,-2331.5729,0,0,22.09999999999127,0.6997840173299066,2331.5729,-26657.6031,4109.6861
6831.350694444444,6882.79379,91.8068321,172.7232182,26873.129800000002,4347.5632000000005,-6134.959400000001,0,0,22.08333333333576,0.7497800176168794,6134.959400000001,-26873.129800000002,4347.5632000000005
6831.351388888889,6883.4453300000005,95.6054369,172.622325,26857.406000000003,4571.026800000001,-10048.626900000001,0,0,22.06666666665842,0.7997760179693301,10048.626900000001,-26857.406000000003,4571.026800000001
6831.352083333333,6884.06693,99.4032347,172.5233659,26580.4355,4784.616300000001,-14006.5365,0,0,22.05000000000291,0.8497720182563024,14006.5365,-26580.4355,4784.616300000001
6831.352777777778,6884.65642,103.2001875,172.42774939999998,26032.8692,4992.4942,-17931.6822,0,0,22.033333333325572,0.8997680186087536,17931.6822,-26032.8692,4992.4942
6831.353472222222,6885.2120700000005,106.9962582,172.3370074,25220.2719,5194.8006000000005,-21754.5766,0,0,22.016666666670062,0.9497640188957259,21754.5766,-25220.2719,5194.8006000000005
6831.354166666667,6885.732730000001,110.791409,172.2528586,24168.136300000002,5389.6618,-25406.974400000003,0,0,21.999999999992724,0.9997600192481766,25406.974400000003,-24168.136300000002,5389.6618
6831.354861111111,6886.217890000001,114.5856015,172.1772878,22914.321200000002,5578.0677000000005,-28838.835300000002,0,0,21.983333333337214,1.0165893209631287,28838.835300000002,-22914.321200000002,5578.0677000000005
6831.355555555556,6886.66751,118.3787955,172.11264889999998,21497.2984,5761.6615,-32025.228000000003,0,0,21.966666666659876,1.03325865473356,32025.228000000003,-21497.2984,5761.6615
6831.35625,6887.08189,122.1709456,172.061805,19951.109200000003,5936.1205,-34950.2511,0,0,21.950000000004366,1.0499279884821602,34950.2511,-19951.109200000003,5936.1205
6831.356944444445,6887.46171,125.9619969,172.0283227,18302.6643,6098.944600000001,-37610.8071,0,0,21.933333333327028,1.0665973222525915,37610.8071,-18302.6643,6098.944600000001
6831.357638888889,6887.80795,129.7518801,172.01675129999998,16572.872,6246.437400000001,-40004.306000000004,0,0,21.916666666671517,1.0832666560011917,40004.306000000004,-16572.872,6246.437400000001
6831.358333333334,6888.12189,133.5405033,172.03303499999998,14776.451000000001,6378.1493,-42144.0343,0,0,21.89999999999418,1.099935989771623,42144.0343,-14776.451000000001,6378.1493
6831.359027777778,6888.4050099999995,137.3277393,172.0851425,12905.178800000002,6489.7398,-44037.957,0,0,21.88333333333867,1.116605323520223,44037.957,-12905.178800000002,6489.7398
6831.359722222222,6888.65893,141.113406,172.18406,10947.6322,6573.7653,-45666.5674,0,0,21.86666666666133,1.1332746572906545,45666.5674,-10947.6322,6573.7653
6831.360416666666,6888.885429999999,144.89723370000002,172.34542199999999,8895.5996,6629.5469,-47005.551100000004,0,0,21.85000000000582,1.1499439910392544,47005.551100000004,-8895.5996,6629.5469
6831.361111111111,6889.08634,148.6788102,172.5923167,6757.063300000001,6685.561500000001,-48025.661400000005,0,0,21.833333333328483,1.1666133248096857,48025.661400000005,-6757.063300000001,6685.561500000001
6831.361805555555,6889.26342,152.4574799,172.9603855,4634.327200000001,6622.8194,-48717.5555,0,0,21.816666666672972,1.1832826585582858,48717.5555,-4634.327200000001,6622.8194
6831.3625,6889.41829,156.2321457,173.5077457,2312.6969,6688.785000000001,-48985.0218,0,0,21.799999999995634,1.1999519923287172,48985.0218,-2312.6969,6688.785000000001
6831.363194444444,6889.55244,160.0008508,174.3360322,19.843700000000002,6702.195500000001,-48806.540400000005,0,0,21.783333333340124,1.2166213260773173,48806.540400000005,-19.843700000000002,6702.195500000001
6831.363888888889,6889.667240000001,163.75978270000002,175.64031749999998,-2173.3068000000003,6761.157,-48165.471600000004,0,0,21.766666666662786,1.2332906598477487,48165.471600000004,2173.3068000000003,6761.157
6831.364583333333,6889.76381,167.5004971,177.84718039999998,-4155.5094,6950.6182,-47062.1281,0,0,21.750000000007276,1.2499599935963486,47062.1281,4155.5094,6950.6182
6831.365277777778,6889.84298,171.200168,-177.9077951,-5689.5838,7484.9604,-45521.2174,0,0,21.733333333329938,1.2666293273667801,45521.2174,5689.5838,7484.9604
6831.365972222222,6889.90528,174.7715025,-167.4296403,-6041.9682,8841.8601,-43603.1452,0,0,21.716666666674428,1.28329866111538,43603.1452,6041.9682,8841.8601
6831.366666666667,6889.950940000001,177.5640244,-125.609552,599.8063000000001,11937.4174,-41359.0173,0,0,21.69999999999709,1.2999679948858116,41359.0173,-599.8063000000001,11937.4174
6831.367361111111,6889.9799299999995,176.3633436,-51.5707004,12427.349900000001,3701.8158000000003,-38885.772300000004,0,18,21.68333333334158,1.3166373286344115,38885.772300000004,-12427.349900000001,3701.8158000000003
6831.368055555556,6889.99199,172.9849592,-32.2481109,13644.1402,-18.361900000000002,-36281.679000000004,0,18,21.66666666666424,1.3333066624048429,36281.679000000004,-13644.1402,-18.361900000000002
